Class,Precision,Recall,F1-Score,Specificity,seed
N,0.6120207464659819,0.9961926833305744,0.7582209902986015,0.1300877893056664,0
Q,0.9669051878354203,0.1813758389261745,0.30545351794292175,0.997515611361042,0
S,0.0,0.0,0.0,1.0,0
V,0.8405797101449275,0.06643757159221077,0.12314225053078556,0.9994494494494495,0
N,0.753174513990336,0.9668926716676284,0.8467563640957615,0.2563060775351278,1
Q,0.9397024275646045,0.2661343978709248,0.41479433114414105,0.9949547896736994,1
S,0.05688622754491018,0.16379310344827586,0.08444444444444445,0.9839735436275757,1
V,0.5911602209944752,0.1669266770670827,0.26034063260340634,0.9919952404132186,1
N,0.8618243243243243,0.9927725579585256,0.9226754850543829,0.15145228215767634,2
Q,0.5454545454545454,0.002471169686985173,0.004920049200492005,0.9997359108435008,2
S,0.6086956521739131,0.16279069767441862,0.25688073394495414,0.9991505026192836,2
V,0.702054794520548,0.5297157622739018,0.6038291605301914,0.9915480643124301,2
N,0.7225725679310026,0.9917897148676171,0.8360427061537636,0.02334312765262814,3
Q,0.0,0.0,0.0,0.9971069480673465,3
S,0.0,0.0,0.0,1.0,3
V,0.43601895734597157,0.024533333333333334,0.046452915930320623,0.993421052631579,3
N,0.98,0.48193446465881873,0.6461244149899225,0.8768347160178686,4
Q,0.0,0.0,0.0,0.9755947885196374,4
S,0.06213176218532405,0.29219143576826195,0.10247349823321555,0.9157889674409657,4
V,0.12177806902577545,0.9579037800687286,0.21608527131782945,0.5984719864176571,4
N,0.9699127000623571,0.9751319157828745,0.9725153054578611,0.6262104583602324,5
Q,0.0,0.0,0.0,0.9988874915352617,5
S,0.0,0.0,0.0,0.9885371445295351,5
V,0.6624579124579124,0.5855654761904762,0.6216429699842022,0.9792722009717771,5
N,0.7736552261222673,0.9695364238410596,0.860590310005569,0.35718799368088466,6
Q,0.7771712158808933,0.7157221206581352,0.7451820128479657,0.9757126629523449,6
S,0.0,0.0,0.0,1.0,6
V,0.7847730600292826,0.20112570356472795,0.3201911589008363,0.9918378678511938,6
N,0.8922805123423467,0.9578043512616552,0.9238821138211382,0.09930242100943783,7
Q,0.0,0.0,0.0,0.9998449371995658,7
S,0.0297029702970297,0.14285714285714285,0.04918032786885246,0.995420346745175,7
V,0.23535676251331203,0.6443148688046647,0.34477379095163807,0.9659344308962377,7
N,0.9646197641317609,0.6744000909814625,0.7938154680231585,0.8356630147336608,8
Q,0.4870478413068845,0.9971333014811276,0.6544371276262151,0.8788313120176405,8
S,0.02109704641350211,0.01824817518248175,0.019569471624266144,0.9883761711508593,8
V,0.007903981264637002,0.09642857142857143,0.01461038961038961,0.830150854508094,8
N,0.8630912894830841,0.9871600326835531,0.9209659415752361,0.1269118125610153,9
Q,0.6510638297872341,0.06273062730627306,0.11443530291697832,0.995384961728951,9
S,0.0,0.0,0.0,0.996080765987002,9
V,0.49324324324324326,0.25,0.33181818181818185,0.9923559088824339,9
N,0.9512268462833774,0.8864540716247268,0.9176989353369499,0.6018654884634266,10
Q,0.0,0.0,0.0,0.9104232858460592,10
S,0.05,0.010101010101010102,0.01680672268907563,0.9980693019002134,10
V,0.7213114754098361,0.7169042769857433,0.7191011235955056,0.9778345194762862,10
N,0.8114974182444062,0.7502386862707657,0.7796666225691229,0.3747430920301439,11
Q,0.2631578947368421,0.0023912003825920613,0.004739336492890996,0.999222179009945,11
S,0.011515151515151515,0.09743589743589744,0.020596205962059622,0.9180196029153054,11
V,0.3518993839835729,0.6550406115623507,0.4578393721823343,0.8596988386953381,11
N,0.9588997178763785,0.9189504731473516,0.9385001568873549,0.7320234113712375,12
Q,0.8590882178804026,0.8056635202665186,0.8315186246418338,0.9858879335902757,12
S,0.10634789777411377,0.3028169014084507,0.1574130567419158,0.9405701754385964,12
V,0.7857142857142857,0.8,0.7927927927927928,0.9980541592346359,12
N,0.9655765050801193,0.9713210617309062,0.9684402646454916,0.5354706684856753,13
Q,0.0,0.0,0.0,1.0,13
S,0.0,0.0,0.0,0.9988404676780365,13
V,0.5569811320754717,0.7263779527559056,0.6304997864160615,0.9708192483595148,13
N,0.8660243785596423,0.9654640398765725,0.9130446982238559,0.5069539666993144,14
Q,0.0,0.0,0.0,1.0,14
S,0.8717948717948718,0.5573770491803278,0.68,0.9995420196931531,14
V,0.7519404915912031,0.9244532803180915,0.8293204922418406,0.9605493262010081,14
N,0.9575042418633348,0.8465734742584384,0.898628352213094,0.8201110022853412,15
Q,0.5715465052283984,0.9933046389287422,0.725589519650655,0.9004284709343224,15
S,0.11932555123216602,0.35658914728682173,0.17881438289601556,0.9611333714939897,15
V,0.8907563025210085,0.44537815126050423,0.5938375350140056,0.9977077700717056,15
N,0.848259493670886,0.9014123977132609,0.8740285854029672,0.22074756229685807,16
Q,0.0,0.0,0.0,0.9173721295686116,16
S,0.5447154471544715,0.38953488372093026,0.4542372881355932,0.9973785226102425,16
V,0.8453105968331304,0.4051371862230006,0.5477505919494869,0.9935926542555875,16
N,0.9787929190923131,0.8818303451966818,0.9277851290858414,0.7168913560666138,17
Q,0.0,0.0,0.0,0.9777777777777777,17
S,0.046890927624872576,0.27058823529411763,0.07993049522154648,0.9527204692556634,17
V,0.33254716981132076,0.7833333333333333,0.46688741721854304,0.9411213981067305,17
N,0.920868755094911,0.963213350386747,0.9415652070371804,0.6472878276667532,18
Q,0.9052815364469664,0.8403565640194489,0.8716116831267073,0.98781172770164,18
S,0.0,0.0,0.0,1.0,18
V,0.41511771995043373,0.2768595041322314,0.3321764997521071,0.975238694785437,18
N,0.8484126511406278,0.9828192920720348,0.9106834601368199,0.42237857467090334,19
Q,0.8878281622911695,0.8912314326784858,0.8895265423242468,0.9860218891268142,19
S,0.0,0.0,0.0,1.0,19
V,0.0,0.0,0.0,0.9991806860388901,19
N,0.92755150429422,0.9980157605306423,0.9614943470424382,0.5703125,20
Q,0.9949664429530202,0.6520065970313359,0.7877781467950847,0.9996845425867508,20
S,0.20588235294117646,0.03783783783783784,0.0639269406392694,0.9986927471676189,20
V,0.9716088328075709,0.5150501672240803,0.673224043715847,0.9990836430280507,20
N,0.9361148583542108,0.9613101128042747,0.9485452060144502,0.39644970414201186,21
Q,0.0,0.0,0.0,0.9844282017523948,21
S,0.717948717948718,0.18961625282167044,0.3,0.9984976782299918,21
V,0.5272422464375524,0.4584548104956268,0.490448343079922,0.973190093644531,21
N,0.8974599260172627,0.9691611185086552,0.931933418693982,0.23566176470588235,22
Q,0.0,0.0,0.0,0.9884998603221902,22
S,0.0,0.0,0.0,1.0,22
V,0.6197327852004111,0.22849564228874575,0.3338870431893688,0.980377598642342,22
N,0.834106728538283,0.9255921730175077,0.8774713204783988,0.28410513141426785,23
Q,0.0,0.0,0.0,0.9770270975826242,23
S,0.6818181818181818,0.009874917709019092,0.01946787800129786,0.999611370197646,23
V,0.5675232367413887,0.4947569113441373,0.5286478227654698,0.9546262834853438,23
N,0.8588743382557815,0.9965515383371949,0.9226049435063477,0.2518463810930576,24
Q,0.9738933030646992,0.47013698630136985,0.6341463414634146,0.9988940180804001,24
S,0.0,0.0,0.0,1.0,24
V,0.7766990291262136,0.07568590350047304,0.13793103448275862,0.997756863510021,24
N,0.9588394486751841,0.9047449373478235,0.9310070887313615,0.8902868646200301,25
Q,0.80527833222444,0.931025641025641,0.8635985253894637,0.9535449735449736,25
S,0.17647058823529413,0.06818181818181818,0.09836065573770492,0.9993847776410617,25
V,0.6310272536687631,0.7461576598909271,0.6837800999545661,0.9576577010056296,25
N,0.8950420741414601,0.9984777369021945,0.9439347604485219,0.457856093979442,26
Q,0.9908675799086758,0.836453744493392,0.9071364586443714,0.9991933160472486,26
S,0.0,0.0,0.0,0.9994230264883294,26
V,0.5641025641025641,0.014834794335805798,0.02890932982917214,0.9990388964269561,26
N,0.8879816415839471,0.9541805252895974,0.919891640866873,0.5356194690265487,27
Q,0.6923608710680954,0.8175510204081633,0.749766049036122,0.9543776912036088,27
S,0.0,0.0,0.0,1.0,27
V,0.654434250764526,0.15274803711634546,0.24768518518518517,0.9945030889721262,27
N,0.9424802392651143,0.8676007866273353,0.9034917059184927,0.3705435417884278,28
Q,0.0,0.0,0.0,0.9614861186717474,28
S,0.0045662100456621,0.011560693641618497,0.006546644844517185,0.9800713045068105,28
V,0.2563725490196078,0.34160679294578705,0.29291514981797817,0.9260721247563353,28
N,0.824009324009324,0.9444561625536103,0.8801310401310402,0.5097402597402597,29
Q,0.8895678742907027,0.9604147031102733,0.9236347156129617,0.9859076477468947,29
S,0.0,0.0,0.0,1.0,29
V,0.52834008097166,0.35526315789473684,0.42485078676071625,0.9608863521907001,29
N,0.9251495197245212,0.9890209248256264,0.9560196023348004,0.6454935622317597,30
Q,0.9795630725863284,0.769656699889258,0.862015503875969,0.9983113026262156,30
S,0.0,0.0,0.0,1.0,30
V,0.8421052631578947,0.5959241040056219,0.6979423868312757,0.9909432672590567,30
N,0.9551444500760263,0.9926780446691951,0.9735496202924007,0.2897271268057785,31
Q,0.0,0.0,0.0,0.9942102137767221,31
S,0.0,0.0,0.0,1.0,31
V,0.9268929503916449,0.3290083410565338,0.4856361149110807,0.9985379353558561,31
N,0.9625903279599778,0.9480974541472762,0.9552889256654254,0.7802807704864512,32
Q,0.7681801402731635,0.9976030680728667,0.8679874869655891,0.9673630599729758,32
S,0.0,0.0,0.0,0.9998549252865225,32
V,0.33865814696485624,0.6463414634146342,0.4444444444444444,0.9802857142857143,32
N,0.9024892799465389,0.9481074123910372,0.9247360912981455,0.26767043078209957,33
Q,0.0,0.0,0.0,0.9962502568317239,33
S,0.5714285714285714,0.002677376171352075,0.005329780146568954,0.9998332406892718,33
V,0.39875604699378026,0.6549375709421112,0.4957044673539519,0.9532333494597646,33
N,0.956377799415774,0.8075089065497396,0.8756612184249628,0.7273833671399594,34
Q,0.00036483035388544326,0.2,0.0007283321194464676,0.867664815262014,34
S,0.04953560371517028,0.08121827411167512,0.06153846153846154,0.9850338809535416,34
V,0.4404283801874163,0.43614670790985416,0.4382770870337478,0.9320214669051878,34
N,0.7647551276684805,0.9889708369984438,0.8625298751881031,0.02515177797051171,35
Q,0.0,0.0,0.0,1.0,35
S,0.0,0.0,0.0,1.0,35
V,0.34408602150537637,0.13370473537604458,0.19257773319959878,0.9901997536550099,35
N,0.77771733755316,0.9961994045733832,0.873503846260657,0.02027027027027027,36
Q,0.0,0.0,0.0,0.9984120900180693,36
S,0.0,0.0,0.0,1.0,36
V,0.6935483870967742,0.03739130434782609,0.07095709570957096,0.9978976486860305,36
N,0.822000711997152,0.9907441461321564,0.8985184979292326,0.13750616067028093,37
Q,0.0,0.0,0.0,1.0,37
S,0.0,0.0,0.0,0.9992108118772812,37
V,0.759018759018759,0.2797872340425532,0.4088612514574427,0.9909690677049535,37
N,0.9904922881893091,0.9555646147574399,0.9727150119306982,0.7637795275590551,38
Q,0.0,0.0,0.0,0.9987727652054391,38
S,0.009433962264150943,0.07692307692307693,0.01680672268907563,0.9689777427614733,38
V,0.6973518284993695,0.8266068759342302,0.7564979480164159,0.9878277628442461,38
N,0.829583251809822,0.9889212827988338,0.9022716390913443,0.11931243680485339,39
Q,0.8448275862068966,0.040246406570841886,0.07683261466091729,0.9990359380858015,39
S,0.6296296296296297,0.07906976744186046,0.14049586776859505,0.9995213249724761,39
V,0.4258188824662813,0.16921898928024504,0.2421917808219178,0.9849494949494949,39
